# Pulseq sequence file
# Created by PyPulseq

[VERSION]
major 1
minor 4
revision 2

[DEFINITIONS]
AdcRasterTime 1e-07 
BlockDurationRaster 1e-06 
GradientRasterTime 3e-05 
RadiofrequencyRasterTime 1e-06 

# Format of blocks:
# NUM DUR RF  GX  GY  GZ  ADC  EXT
[BLOCKS]
  1 29960   0   0   0   0  1  0
  2 9975   1   1   0   0  0  0
  3 10025   2   2   0   0  0  0
  4 4975   1   1   0   0  0  0
  5 10000   3   3   4   4  0  0
  6   0   0   0   5   5  0  0
  7 10000   3   3   4   4  0  0
  8   0   0   0   5   5  0  0
  9 5025   0   0   0   0  0  0
 10 9975   1   1   0   0  0  0
 11 10025   2   2   0   0  0  0
 12 4975   1   1   0   0  0  0
 13 10000   3   3   4   4  2  0
 14   0   0   0   5   5  0  0
 15 10000   3   3   4   4  2  0
 16   0   0   0   5   5  0  0
 17 5025   0   0   0   0  0  0
 18 9975   1   0   0   0  0  0
 19 10025   2   0   0   0  0  0
 20 4975   1   1   0   0  0  0
 21 10000   3   3   4   4  2  0
 22   0   0   0   5   5  0  0
 23 10000   3   3   6   4  2  0
 24   0   0   0   7   5  0  0
 25 5025   0   0   0   0  0  0
 26 9975   1   0   0   0  0  0
 27 10025   2   0   0   0  0  0
 28 4975   1   1   0   0  0  0
 29 10000   3   3   8   4  2  0
 30   0   0   0   9   5  0  0
 31 10000   3   3  10   4  2  0
 32   0   0   0  11   5  0  0
 33 5025   0   0   0   0  0  0
 34 9975   1   0   0   0  0  0
 35 10025   2   0   0   0  0  0
 36 4975   1   1   0   0  0  0
 37 10000   3   3  12   4  2  0
 38   0   0   0  13   5  0  0
 39 10000   3   3  14   4  2  0
 40   0   0   0  15   5  0  0
 41 5025   0   0   0   0  0  0
 42 9975   1   0   0   0  0  0
 43 10025   2   0   0   0  0  0
 44 4975   1   1   0   0  0  0
 45 10000   3   3  16   4  2  0
 46   0   0   0  17   5  0  0
 47 10000   3   3  18   4  2  0
 48   0   0   0  19   5  0  0
 49 5025   0   0   0   0  0  0
 50 9975   1   0   0   0  0  0
 51 10025   2   0   0   0  0  0
 52 4975   1   1   0   0  0  0
 53 10000   3   3  20   4  2  0
 54   0   0   0  21   5  0  0
 55 10000   3   3  22   4  2  0
 56   0   0   0  23   5  0  0
 57 5025   0   0   0   0  0  0
 58 9975   1   0   0   0  0  0
 59 10025   2   0   0   0  0  0
 60 4975   1   1   0   0  0  0
 61 10000   3   3  24   4  2  0
 62   0   0   0  25   5  0  0
 63 10000   3   3  26   4  2  0
 64   0   0   0  27   5  0  0
 65 5025   0   0   0   0  0  0
 66 9975   1   0   0   0  0  0
 67 10025   2   0   0   0  0  0
 68 4975   1   1   0   0  0  0
 69 10000   3   3  28   4  2  0
 70   0   0   0  29   5  0  0
 71 10000   3   3  30   4  2  0
 72   0   0   0  31   5  0  0
 73 5025   0   0   0   0  0  0
 74 9975   1   0   0   0  0  0
 75 10025   2   0   0   0  0  0
 76 4975   1   1   0   0  0  0
 77 10000   3   3  32   4  2  0
 78   0   0   0  33   5  0  0
 79 10000   3   3  34   4  2  0
 80   0   0   0  35   5  0  0
 81 5025   0   0   0   0  0  0
 82 9975   1   0   0   0  0  0
 83 10025   2   0   0   0  0  0
 84 4975   1   1   0   0  0  0
 85 10000   3   3  36   4  2  0
 86   0   0   0  37   5  0  0
 87 10000   3   3  38   4  2  0
 88   0   0   0  39   5  0  0
 89 5025   0   0   0   0  0  0
 90 9975   1   0   0   0  0  0
 91 10025   2   0   0   0  0  0
 92 4975   1   1   0   0  0  0
 93 10000   3   3  40   4  2  0
 94   0   0   0  41   5  0  0
 95 10000   3   3  42   4  2  0
 96   0   0   0  43   5  0  0
 97 5025   0   0   0   0  0  0
 98 9975   1   0   0   0  0  0
 99 10025   2   0   0   0  0  0
100 4975   1   1   0   0  0  0
101 10000   3   3  44   4  2  0
102   0   0   0  45   5  0  0
103 10000   3   3  46   4  2  0
104   0   0   0  47   5  0  0
105 5025   0   0   0   0  0  0
106 9975   1   0   0   0  0  0
107 10025   2   0   0   0  0  0
108 4975   1   1   0   0  0  0
109 10000   3   3  48   4  2  0
110   0   0   0  49   5  0  0
111 10000   3   3  50   4  2  0
112   0   0   0  51   5  0  0
113 5025   0   0   0   0  0  0
114 9975   1   0   0   0  0  0
115 10025   2   0   0   0  0  0
116 4975   1   1   0   0  0  0
117 10000   3   3  52   4  2  0
118   0   0   0  53   5  0  0
119 10000   3   3  54   4  2  0
120   0   0   0  55   5  0  0
121 5025   0   0   0   0  0  0
122 9975   1   0   0   0  0  0
123 10025   2   0   0   0  0  0
124 4975   1   1   0   0  0  0
125 10000   3   3  56   4  2  0
126   0   0   0  57   5  0  0
127 10000   3   3  58   4  2  0
128   0   0   0  59   5  0  0
129 5025   0   0   0   0  0  0
130 9975   1   0   0   0  0  0
131 10025   2   0   0   0  0  0
132 4975   1   1   0   0  0  0
133 10000   3   3  60   4  2  0
134   0   0   0  61   5  0  0
135 10000   3   3  62   4  2  0
136   0   0   0  63   5  0  0
137 5025   0   0   0   0  0  0
138 9975   1   0   0   0  0  0
139 10025   2   0   0   0  0  0
140 4975   1   1   0   0  0  0
141 10000   3   3  64   4  2  0
142   0   0   0  65   5  0  0
143 10000   3   3  66   4  2  0
144   0   0   0  67   5  0  0
145 5025   0   0   0   0  0  0
146 9975   1   0   0   0  0  0
147 10025   2   0   0   0  0  0
148 4975   1   1   0   0  0  0
149 10000   3   3  68   4  2  0
150   0   0   0  69   5  0  0
151 10000   3   3  70   4  2  0
152   0   0   0  71   5  0  0
153 5025   0   0   0   0  0  0
154 9975   1   0   0   0  0  0
155 10025   2   0   0   0  0  0
156 4975   1   1   0   0  0  0
157 10000   3   3  72   4  2  0
158   0   0   0  73   5  0  0
159 10000   3   3  74   4  2  0
160   0   0   0  75   5  0  0
161 5025   0   0   0   0  0  0
162 9975   1   0   0   0  0  0
163 10025   2   0   0   0  0  0
164 4975   1   1   0   0  0  0
165 10000   3   3  76   4  2  0
166   0   0   0  77   5  0  0
167 10000   3   3  78   4  2  0
168   0   0   0  79   5  0  0
169 5025   0   0   0   0  0  0
170 9975   1   0   0   0  0  0
171 10025   2   0   0   0  0  0
172 4975   1   1   0   0  0  0
173 10000   3   3  80   4  2  0
174   0   0   0  81   5  0  0
175 10000   3   3  82   4  2  0
176   0   0   0  83   5  0  0
177 5025   0   0   0   0  0  0

# Format of RF events:
# id amplitude mag_id phase_id time_shape_id delay freq phase
# ..        Hz   ....     ....          ....    us   Hz   rad
[RF]
1         5000 1 2 3 15 0 0
2         5000 1 2 4 15 0 0
3         5000 1 2 4 15 0 1.5708

# Format of trapezoid gradients:
# id amplitude rise flat fall delay
# ..      Hz/m   us   us   us    us
[TRAP]
 1       138095 400 1000 400  56
 2      -138095 400 1000 400  56
 3       133333 400 2500 400 3406
 4            0 400 1000 400 106
 5            0 400 1000 400 -3444
 6        47619 400 1000 400 106
 7       -47619 400 1000 400 -3444
 8      -4761.9 400 1000 400 106
 9       4761.9 400 1000 400 -3444
10       -52381 400 1000 400 106
11        52381 400 1000 400 -3444
12       4761.9 400 1000 400 106
13      -4761.9 400 1000 400 -3444
14        52381 400 1000 400 106
15       -52381 400 1000 400 -3444
16     -9523.81 400 1000 400 106
17      9523.81 400 1000 400 -3444
18     -57142.9 400 1000 400 106
19      57142.9 400 1000 400 -3444
20      9523.81 400 1000 400 106
21     -9523.81 400 1000 400 -3444
22      57142.9 400 1000 400 106
23     -57142.9 400 1000 400 -3444
24     -14285.7 400 1000 400 106
25      14285.7 400 1000 400 -3444
26     -61904.8 400 1000 400 106
27      61904.8 400 1000 400 -3444
28      14285.7 400 1000 400 106
29     -14285.7 400 1000 400 -3444
30      61904.8 400 1000 400 106
31     -61904.8 400 1000 400 -3444
32     -19047.6 400 1000 400 106
33      19047.6 400 1000 400 -3444
34     -66666.7 400 1000 400 106
35      66666.7 400 1000 400 -3444
36      19047.6 400 1000 400 106
37     -19047.6 400 1000 400 -3444
38      66666.7 400 1000 400 106
39     -66666.7 400 1000 400 -3444
40     -23809.5 400 1000 400 106
41      23809.5 400 1000 400 -3444
42     -71428.6 400 1000 400 106
43      71428.6 400 1000 400 -3444
44      23809.5 400 1000 400 106
45     -23809.5 400 1000 400 -3444
46      71428.6 400 1000 400 106
47     -71428.6 400 1000 400 -3444
48     -28571.4 400 1000 400 106
49      28571.4 400 1000 400 -3444
50     -76190.5 400 1000 400 106
51      76190.5 400 1000 400 -3444
52      28571.4 400 1000 400 106
53     -28571.4 400 1000 400 -3444
54      76190.5 400 1000 400 106
55     -76190.5 400 1000 400 -3444
56     -33333.3 400 1000 400 106
57      33333.3 400 1000 400 -3444
58     -80952.4 400 1000 400 106
59      80952.4 400 1000 400 -3444
60      33333.3 400 1000 400 106
61     -33333.3 400 1000 400 -3444
62      80952.4 400 1000 400 106
63     -80952.4 400 1000 400 -3444
64     -38095.2 400 1000 400 106
65      38095.2 400 1000 400 -3444
66     -85714.3 400 1000 400 106
67      85714.3 400 1000 400 -3444
68      38095.2 400 1000 400 106
69     -38095.2 400 1000 400 -3444
70      85714.3 400 1000 400 106
71     -85714.3 400 1000 400 -3444
72     -42857.1 400 1000 400 106
73      42857.1 400 1000 400 -3444
74     -90476.2 400 1000 400 106
75      90476.2 400 1000 400 -3444
76      42857.1 400 1000 400 106
77     -42857.1 400 1000 400 -3444
78      90476.2 400 1000 400 106
79     -90476.2 400 1000 400 -3444
80       -47619 400 1000 400 106
81        47619 400 1000 400 -3444
82     -95238.1 400 1000 400 106
83      95238.1 400 1000 400 -3444

# Format of ADC events:
# id num dwell delay freq phase
# ..  ..    ns    us   Hz   rad
[ADC]
1 360 8333 40 0 0
2 360 8333 3565 0 0

# Sequence Shapes
[SHAPES]

shape_id 1
num_samples 2
1
1

shape_id 2
num_samples 2
0
0

shape_id 3
num_samples 2
0
50

shape_id 4
num_samples 2
0
100


[SIGNATURE]
# This is the hash of the Pulseq file, calculated right before the [SIGNATURE] section was added
# It can be reproduced/verified with md5sum if the file trimmed to the position right above [SIGNATURE]
# The new line character preceding [SIGNATURE] BELONGS to the signature (and needs to be stripped away for recalculating/verification)
Type md5
Hash 09bfbe4052aef965770bd123c327d065
