# Pulseq sequence file
# Created by PyPulseq

[VERSION]
major 1
minor 4
revision 2

[DEFINITIONS]
AdcRasterTime 8.13802083e-09 
BlockDurationRaster 1e-05 
FOV 0.2 0.2 0.005 
GradientRasterTime 1e-05 
RadiofrequencyRasterTime 1e-05 
TotalDuration 154.2 

# Format of blocks:
# NUM DUR RF  GX  GY  GZ  ADC  EXT
[BLOCKS]
   1  25   0   0   0   1  0  0
   2 370   1   0   0   2  0  0
   3 630   0   4   0   3  0  0
   4 370   2   0   0   2  0  0
   5 414   0   6   7   5  0  0
   6 802   0   8   0   0  0  0
   7 414   0  10   7   9  0  0
   8 370   0   0   0   2  0  0
   9 414   0   0   0   5  0  0
  10 56191   0   0   0   0  0  0
  11  25   0   0   0   1  0  0
  12 370   1   0   0   2  0  0
  13 630   0   4   0   3  0  0
  14 370   2   0   0   2  0  0
  15 414   0   6   7   5  0  0
  16 802   0   8   0   0  1  0
  17 414   0  10   7   9  0  0
  18 370   0   0   0   2  0  0
  19 414   0   0   0   5  0  0
  20 56191   0   0   0   0  0  0
  21  25   0   0   0   1  0  0
  22 370   1   0   0   2  0  0
  23 630   0   4   0   3  0  0
  24 370   2   0   0   2  0  0
  25 414   0   6  11   5  0  0
  26 802   0   8   0   0  1  0
  27 414   0  10  12   9  0  0
  28 370   0   0   0   2  0  0
  29 414   0   0   0   5  0  0
  30 56191   0   0   0   0  0  0
  31  25   0   0   0   1  0  0
  32 370   1   0   0   2  0  0
  33 630   0   4   0   3  0  0
  34 370   2   0   0   2  0  0
  35 414   0   6  13   5  0  0
  36 802   0   8   0   0  1  0
  37 414   0  10  14   9  0  0
  38 370   0   0   0   2  0  0
  39 414   0   0   0   5  0  0
  40 56191   0   0   0   0  0  0
  41  25   0   0   0   1  0  0
  42 370   1   0   0   2  0  0
  43 630   0   4   0   3  0  0
  44 370   2   0   0   2  0  0
  45 414   0   6  15   5  0  0
  46 802   0   8   0   0  1  0
  47 414   0  10  16   9  0  0
  48 370   0   0   0   2  0  0
  49 414   0   0   0   5  0  0
  50 56191   0   0   0   0  0  0
  51  25   0   0   0   1  0  0
  52 370   1   0   0   2  0  0
  53 630   0   4   0   3  0  0
  54 370   2   0   0   2  0  0
  55 414   0   6  17   5  0  0
  56 802   0   8   0   0  1  0
  57 414   0  10  18   9  0  0
  58 370   0   0   0   2  0  0
  59 414   0   0   0   5  0  0
  60 56191   0   0   0   0  0  0
  61  25   0   0   0   1  0  0
  62 370   1   0   0   2  0  0
  63 630   0   4   0   3  0  0
  64 370   2   0   0   2  0  0
  65 414   0   6  19   5  0  0
  66 802   0   8   0   0  1  0
  67 414   0  10  20   9  0  0
  68 370   0   0   0   2  0  0
  69 414   0   0   0   5  0  0
  70 56191   0   0   0   0  0  0
  71  25   0   0   0   1  0  0
  72 370   1   0   0   2  0  0
  73 630   0   4   0   3  0  0
  74 370   2   0   0   2  0  0
  75 414   0   6  21   5  0  0
  76 802   0   8   0   0  1  0
  77 414   0  10  22   9  0  0
  78 370   0   0   0   2  0  0
  79 414   0   0   0   5  0  0
  80 56191   0   0   0   0  0  0
  81  25   0   0   0   1  0  0
  82 370   1   0   0   2  0  0
  83 630   0   4   0   3  0  0
  84 370   2   0   0   2  0  0
  85 414   0   6  23   5  0  0
  86 802   0   8   0   0  1  0
  87 414   0  10  24   9  0  0
  88 370   0   0   0   2  0  0
  89 414   0   0   0   5  0  0
  90 56191   0   0   0   0  0  0
  91  25   0   0   0   1  0  0
  92 370   1   0   0   2  0  0
  93 630   0   4   0   3  0  0
  94 370   2   0   0   2  0  0
  95 414   0   6  25   5  0  0
  96 802   0   8   0   0  1  0
  97 414   0  10  26   9  0  0
  98 370   0   0   0   2  0  0
  99 414   0   0   0   5  0  0
 100 56191   0   0   0   0  0  0
 101  25   0   0   0   1  0  0
 102 370   1   0   0   2  0  0
 103 630   0   4   0   3  0  0
 104 370   2   0   0   2  0  0
 105 414   0   6  27   5  0  0
 106 802   0   8   0   0  1  0
 107 414   0  10  28   9  0  0
 108 370   0   0   0   2  0  0
 109 414   0   0   0   5  0  0
 110 56191   0   0   0   0  0  0
 111  25   0   0   0   1  0  0
 112 370   1   0   0   2  0  0
 113 630   0   4   0   3  0  0
 114 370   2   0   0   2  0  0
 115 414   0   6  29   5  0  0
 116 802   0   8   0   0  1  0
 117 414   0  10  30   9  0  0
 118 370   0   0   0   2  0  0
 119 414   0   0   0   5  0  0
 120 56191   0   0   0   0  0  0
 121  25   0   0   0   1  0  0
 122 370   1   0   0   2  0  0
 123 630   0   4   0   3  0  0
 124 370   2   0   0   2  0  0
 125 414   0   6  31   5  0  0
 126 802   0   8   0   0  1  0
 127 414   0  10  32   9  0  0
 128 370   0   0   0   2  0  0
 129 414   0   0   0   5  0  0
 130 56191   0   0   0   0  0  0
 131  25   0   0   0   1  0  0
 132 370   1   0   0   2  0  0
 133 630   0   4   0   3  0  0
 134 370   2   0   0   2  0  0
 135 414   0   6  33   5  0  0
 136 802   0   8   0   0  1  0
 137 414   0  10  34   9  0  0
 138 370   0   0   0   2  0  0
 139 414   0   0   0   5  0  0
 140 56191   0   0   0   0  0  0
 141  25   0   0   0   1  0  0
 142 370   1   0   0   2  0  0
 143 630   0   4   0   3  0  0
 144 370   2   0   0   2  0  0
 145 414   0   6  35   5  0  0
 146 802   0   8   0   0  1  0
 147 414   0  10  36   9  0  0
 148 370   0   0   0   2  0  0
 149 414   0   0   0   5  0  0
 150 56191   0   0   0   0  0  0
 151  25   0   0   0   1  0  0
 152 370   1   0   0   2  0  0
 153 630   0   4   0   3  0  0
 154 370   2   0   0   2  0  0
 155 414   0   6  37   5  0  0
 156 802   0   8   0   0  1  0
 157 414   0  10  38   9  0  0
 158 370   0   0   0   2  0  0
 159 414   0   0   0   5  0  0
 160 56191   0   0   0   0  0  0
 161  25   0   0   0   1  0  0
 162 370   1   0   0   2  0  0
 163 630   0   4   0   3  0  0
 164 370   2   0   0   2  0  0
 165 414   0   6  39   5  0  0
 166 802   0   8   0   0  1  0
 167 414   0  10  40   9  0  0
 168 370   0   0   0   2  0  0
 169 414   0   0   0   5  0  0
 170 56191   0   0   0   0  0  0
 171  25   0   0   0   1  0  0
 172 370   1   0   0   2  0  0
 173 630   0   4   0   3  0  0
 174 370   2   0   0   2  0  0
 175 414   0   6  41   5  0  0
 176 802   0   8   0   0  1  0
 177 414   0  10  42   9  0  0
 178 370   0   0   0   2  0  0
 179 414   0   0   0   5  0  0
 180 56191   0   0   0   0  0  0
 181  25   0   0   0   1  0  0
 182 370   1   0   0   2  0  0
 183 630   0   4   0   3  0  0
 184 370   2   0   0   2  0  0
 185 414   0   6  43   5  0  0
 186 802   0   8   0   0  1  0
 187 414   0  10  44   9  0  0
 188 370   0   0   0   2  0  0
 189 414   0   0   0   5  0  0
 190 56191   0   0   0   0  0  0
 191  25   0   0   0   1  0  0
 192 370   1   0   0   2  0  0
 193 630   0   4   0   3  0  0
 194 370   2   0   0   2  0  0
 195 414   0   6  45   5  0  0
 196 802   0   8   0   0  1  0
 197 414   0  10  46   9  0  0
 198 370   0   0   0   2  0  0
 199 414   0   0   0   5  0  0
 200 56191   0   0   0   0  0  0
 201  25   0   0   0   1  0  0
 202 370   1   0   0   2  0  0
 203 630   0   4   0   3  0  0
 204 370   2   0   0   2  0  0
 205 414   0   6  47   5  0  0
 206 802   0   8   0   0  1  0
 207 414   0  10  48   9  0  0
 208 370   0   0   0   2  0  0
 209 414   0   0   0   5  0  0
 210 56191   0   0   0   0  0  0
 211  25   0   0   0   1  0  0
 212 370   1   0   0   2  0  0
 213 630   0   4   0   3  0  0
 214 370   2   0   0   2  0  0
 215 414   0   6  49   5  0  0
 216 802   0   8   0   0  1  0
 217 414   0  10  50   9  0  0
 218 370   0   0   0   2  0  0
 219 414   0   0   0   5  0  0
 220 56191   0   0   0   0  0  0
 221  25   0   0   0   1  0  0
 222 370   1   0   0   2  0  0
 223 630   0   4   0   3  0  0
 224 370   2   0   0   2  0  0
 225 414   0   6  51   5  0  0
 226 802   0   8   0   0  1  0
 227 414   0  10  52   9  0  0
 228 370   0   0   0   2  0  0
 229 414   0   0   0   5  0  0
 230 56191   0   0   0   0  0  0
 231  25   0   0   0   1  0  0
 232 370   1   0   0   2  0  0
 233 630   0   4   0   3  0  0
 234 370   2   0   0   2  0  0
 235 414   0   6  53   5  0  0
 236 802   0   8   0   0  1  0
 237 414   0  10  54   9  0  0
 238 370   0   0   0   2  0  0
 239 414   0   0   0   5  0  0
 240 56191   0   0   0   0  0  0
 241  25   0   0   0   1  0  0
 242 370   1   0   0   2  0  0
 243 630   0   4   0   3  0  0
 244 370   2   0   0   2  0  0
 245 414   0   6  55   5  0  0
 246 802   0   8   0   0  1  0
 247 414   0  10  56   9  0  0
 248 370   0   0   0   2  0  0
 249 414   0   0   0   5  0  0
 250 56191   0   0   0   0  0  0
 251  25   0   0   0   1  0  0
 252 370   1   0   0   2  0  0
 253 630   0   4   0   3  0  0
 254 370   2   0   0   2  0  0
 255 414   0   6  57   5  0  0
 256 802   0   8   0   0  1  0
 257 414   0  10  58   9  0  0
 258 370   0   0   0   2  0  0
 259 414   0   0   0   5  0  0
 260 56191   0   0   0   0  0  0
 261  25   0   0   0   1  0  0
 262 370   1   0   0   2  0  0
 263 630   0   4   0   3  0  0
 264 370   2   0   0   2  0  0
 265 414   0   6  59   5  0  0
 266 802   0   8   0   0  1  0
 267 414   0  10  60   9  0  0
 268 370   0   0   0   2  0  0
 269 414   0   0   0   5  0  0
 270 56191   0   0   0   0  0  0
 271  25   0   0   0   1  0  0
 272 370   1   0   0   2  0  0
 273 630   0   4   0   3  0  0
 274 370   2   0   0   2  0  0
 275 414   0   6  61   5  0  0
 276 802   0   8   0   0  1  0
 277 414   0  10  62   9  0  0
 278 370   0   0   0   2  0  0
 279 414   0   0   0   5  0  0
 280 56191   0   0   0   0  0  0
 281  25   0   0   0   1  0  0
 282 370   1   0   0   2  0  0
 283 630   0   4   0   3  0  0
 284 370   2   0   0   2  0  0
 285 414   0   6  63   5  0  0
 286 802   0   8   0   0  1  0
 287 414   0  10  64   9  0  0
 288 370   0   0   0   2  0  0
 289 414   0   0   0   5  0  0
 290 56191   0   0   0   0  0  0
 291  25   0   0   0   1  0  0
 292 370   1   0   0   2  0  0
 293 630   0   4   0   3  0  0
 294 370   2   0   0   2  0  0
 295 414   0   6  65   5  0  0
 296 802   0   8   0   0  1  0
 297 414   0  10  66   9  0  0
 298 370   0   0   0   2  0  0
 299 414   0   0   0   5  0  0
 300 56191   0   0   0   0  0  0
 301  25   0   0   0   1  0  0
 302 370   1   0   0   2  0  0
 303 630   0   4   0   3  0  0
 304 370   2   0   0   2  0  0
 305 414   0   6  67   5  0  0
 306 802   0   8   0   0  1  0
 307 414   0  10  68   9  0  0
 308 370   0   0   0   2  0  0
 309 414   0   0   0   5  0  0
 310 56191   0   0   0   0  0  0
[RF]
1      282.109 5 6 0 100 0 1.5708
2      564.219 5 6 0 100 0 0

# Format of arbitrary gradients:
#   time_shape_id of 0 means default timing (stepping with grad_raster starting at 1/2 of grad_raster)
# id amplitude amp_shape_id time_shape_id delay
# ..      Hz/m       ..         ..          us
[GRADIENTS]
1       228571 1 2 0
2       228571 3 4 0
3       228571 7 8 0
5       348145 9 10 0
6       159601 11 10 0
8       159601 3 12 0
9       348145 13 10 0
10       159601 14 10 0

# Format of trapezoid gradients:
# id amplitude rise flat fall delay
# ..      Hz/m   us   us   us    us
[TRAP]
 4       109083 250 5800 250   0
 7            0 250 3640 250   0
11      1285.35 250 3640 250   0
12     -1285.35 250 3640 250   0
13      2570.69 250 3640 250   0
14     -2570.69 250 3640 250   0
15      3856.04 250 3640 250   0
16     -3856.04 250 3640 250   0
17      5141.39 250 3640 250   0
18     -5141.39 250 3640 250   0
19      6426.74 250 3640 250   0
20     -6426.74 250 3640 250   0
21      7712.08 250 3640 250   0
22     -7712.08 250 3640 250   0
23      8997.43 250 3640 250   0
24     -8997.43 250 3640 250   0
25      10282.8 250 3640 250   0
26     -10282.8 250 3640 250   0
27      11568.1 250 3640 250   0
28     -11568.1 250 3640 250   0
29      12853.5 250 3640 250   0
30     -12853.5 250 3640 250   0
31      14138.8 250 3640 250   0
32     -14138.8 250 3640 250   0
33      15424.2 250 3640 250   0
34     -15424.2 250 3640 250   0
35      16709.5 250 3640 250   0
36     -16709.5 250 3640 250   0
37      17994.9 250 3640 250   0
38     -17994.9 250 3640 250   0
39      19280.2 250 3640 250   0
40     -19280.2 250 3640 250   0
41      20565.6 250 3640 250   0
42     -20565.6 250 3640 250   0
43      21850.9 250 3640 250   0
44     -21850.9 250 3640 250   0
45      23136.2 250 3640 250   0
46     -23136.2 250 3640 250   0
47      24421.6 250 3640 250   0
48     -24421.6 250 3640 250   0
49      25706.9 250 3640 250   0
50     -25706.9 250 3640 250   0
51      26992.3 250 3640 250   0
52     -26992.3 250 3640 250   0
53      28277.6 250 3640 250   0
54     -28277.6 250 3640 250   0
55        29563 250 3640 250   0
56       -29563 250 3640 250   0
57      30848.3 250 3640 250   0
58     -30848.3 250 3640 250   0
59      32133.7 250 3640 250   0
60     -32133.7 250 3640 250   0
61        33419 250 3640 250   0
62       -33419 250 3640 250   0
63      34704.4 250 3640 250   0
64     -34704.4 250 3640 250   0
65      35989.7 250 3640 250   0
66     -35989.7 250 3640 250   0
67      37275.1 250 3640 250   0
68     -37275.1 250 3640 250   0
69      38560.4 250 3640 250   0
70     -38560.4 250 3640 250   0
71      39845.8 250 3640 250   0
72     -39845.8 250 3640 250   0
73      41131.1 250 3640 250   0
74     -41131.1 250 3640 250   0
75      42416.5 250 3640 250   0
76     -42416.5 250 3640 250   0
77      43701.8 250 3640 250   0
78     -43701.8 250 3640 250   0
79      44987.1 250 3640 250   0
80     -44987.1 250 3640 250   0
81      46272.5 250 3640 250   0
82     -46272.5 250 3640 250   0
83      47557.8 250 3640 250   0
84     -47557.8 250 3640 250   0
85      48843.2 250 3640 250   0
86     -48843.2 250 3640 250   0
87      50128.5 250 3640 250   0
88     -50128.5 250 3640 250   0
89      51413.9 250 3640 250   0
90     -51413.9 250 3640 250   0
91      52699.2 250 3640 250   0
92     -52699.2 250 3640 250   0
93      53984.6 250 3640 250   0
94     -53984.6 250 3640 250   0
95      55269.9 250 3640 250   0
96     -55269.9 250 3640 250   0
97      56555.3 250 3640 250   0
98     -56555.3 250 3640 250   0
99      57840.6 250 3640 250   0
100     -57840.6 250 3640 250   0
101        59126 250 3640 250   0
102       -59126 250 3640 250   0
103      60411.3 250 3640 250   0
104     -60411.3 250 3640 250   0
105      61696.7 250 3640 250   0
106     -61696.7 250 3640 250   0
107        62982 250 3640 250   0
108       -62982 250 3640 250   0
109      64267.4 250 3640 250   0
110     -64267.4 250 3640 250   0
111      65552.7 250 3640 250   0
112     -65552.7 250 3640 250   0
113        66838 250 3640 250   0
114       -66838 250 3640 250   0
115      68123.4 250 3640 250   0
116     -68123.4 250 3640 250   0
117      69408.7 250 3640 250   0
118     -69408.7 250 3640 250   0
119      70694.1 250 3640 250   0
120     -70694.1 250 3640 250   0
121      71979.4 250 3640 250   0
122     -71979.4 250 3640 250   0
123      73264.8 250 3640 250   0
124     -73264.8 250 3640 250   0
125      74550.1 250 3640 250   0
126     -74550.1 250 3640 250   0
127      75835.5 250 3640 250   0
128     -75835.5 250 3640 250   0
129      77120.8 250 3640 250   0
130     -77120.8 250 3640 250   0
131      78406.2 250 3640 250   0
132     -78406.2 250 3640 250   0
133      79691.5 250 3640 250   0
134     -79691.5 250 3640 250   0
135      80976.9 250 3640 250   0
136     -80976.9 250 3640 250   0
137      82262.2 250 3640 250   0
138     -82262.2 250 3640 250   0
139      83547.6 250 3640 250   0
140     -83547.6 250 3640 250   0
141      84832.9 250 3640 250   0
142     -84832.9 250 3640 250   0
143      86118.3 250 3640 250   0
144     -86118.3 250 3640 250   0
145      87403.6 250 3640 250   0
146     -87403.6 250 3640 250   0
147      88688.9 250 3640 250   0
148     -88688.9 250 3640 250   0
149      89974.3 250 3640 250   0
150     -89974.3 250 3640 250   0
151      91259.6 250 3640 250   0
152     -91259.6 250 3640 250   0
153        92545 250 3640 250   0
154       -92545 250 3640 250   0
155      93830.3 250 3640 250   0
156     -93830.3 250 3640 250   0
157      95115.7 250 3640 250   0
158     -95115.7 250 3640 250   0
159        96401 250 3640 250   0
160       -96401 250 3640 250   0
161      97686.4 250 3640 250   0
162     -97686.4 250 3640 250   0
163      98971.7 250 3640 250   0
164     -98971.7 250 3640 250   0
165       100257 250 3640 250   0
166      -100257 250 3640 250   0
167       101542 250 3640 250   0
168      -101542 250 3640 250   0
169       102828 250 3640 250   0
170      -102828 250 3640 250   0
171       104113 250 3640 250   0
172      -104113 250 3640 250   0
173       105398 250 3640 250   0
174      -105398 250 3640 250   0
175       106684 250 3640 250   0
176      -106684 250 3640 250   0
177       107969 250 3640 250   0
178      -107969 250 3640 250   0
179       109254 250 3640 250   0
180      -109254 250 3640 250   0
181       110540 250 3640 250   0
182      -110540 250 3640 250   0
183       111825 250 3640 250   0
184      -111825 250 3640 250   0
185       113111 250 3640 250   0
186      -113111 250 3640 250   0
187       114396 250 3640 250   0
188      -114396 250 3640 250   0
189       115681 250 3640 250   0
190      -115681 250 3640 250   0
191       116967 250 3640 250   0
192      -116967 250 3640 250   0
193       118252 250 3640 250   0
194      -118252 250 3640 250   0
195       119537 250 3640 250   0
196      -119537 250 3640 250   0
197       120823 250 3640 250   0
198      -120823 250 3640 250   0
199       122108 250 3640 250   0
200      -122108 250 3640 250   0
201       123393 250 3640 250   0
202      -123393 250 3640 250   0
203       124679 250 3640 250   0
204      -124679 250 3640 250   0
205       125964 250 3640 250   0
206      -125964 250 3640 250   0
207       127249 250 3640 250   0
208      -127249 250 3640 250   0
209       128535 250 3640 250   0
210      -128535 250 3640 250   0
211       129820 250 3640 250   0
212      -129820 250 3640 250   0
213       131105 250 3640 250   0
214      -131105 250 3640 250   0
215       132391 250 3640 250   0
216      -132391 250 3640 250   0
217       133676 250 3640 250   0
218      -133676 250 3640 250   0
219       134961 250 3640 250   0
220      -134961 250 3640 250   0
221       136247 250 3640 250   0
222      -136247 250 3640 250   0
223       137532 250 3640 250   0
224      -137532 250 3640 250   0
225       138817 250 3640 250   0
226      -138817 250 3640 250   0
227       140103 250 3640 250   0
228      -140103 250 3640 250   0
229       141388 250 3640 250   0
230      -141388 250 3640 250   0
231       142674 250 3640 250   0
232      -142674 250 3640 250   0
233       143959 250 3640 250   0
234      -143959 250 3640 250   0
235       145244 250 3640 250   0
236      -145244 250 3640 250   0
237       146530 250 3640 250   0
238      -146530 250 3640 250   0
239       147815 250 3640 250   0
240      -147815 250 3640 250   0
241       149100 250 3640 250   0
242      -149100 250 3640 250   0
243       150386 250 3640 250   0
244      -150386 250 3640 250   0
245       151671 250 3640 250   0
246      -151671 250 3640 250   0
247       152956 250 3640 250   0
248      -152956 250 3640 250   0
249       154242 250 3640 250   0
250      -154242 250 3640 250   0
251       155527 250 3640 250   0
252      -155527 250 3640 250   0
253       156812 250 3640 250   0
254      -156812 250 3640 250   0
255       158098 250 3640 250   0
256      -158098 250 3640 250   0
257       159383 250 3640 250   0
258      -159383 250 3640 250   0
259       160668 250 3640 250   0
260      -160668 250 3640 250   0
261       161954 250 3640 250   0
262      -161954 250 3640 250   0
263       163239 250 3640 250   0
264      -163239 250 3640 250   0
265      -164524 250 3640 250   0
266       164524 250 3640 250   0

# Format of ADC events:
# id num dwell delay freq phase
# ..  ..    ns    us   Hz   rad
[ADC]
1 256 31250 10 0 0

# Sequence Shapes
[SHAPES]

shape_id 1
num_samples 2
0
1

shape_id 2
num_samples 2
0
25

shape_id 3
num_samples 2
1
1

shape_id 4
num_samples 2
0
370

shape_id 5
num_samples 350
5.77143847e-08
1.56651235e-06
7.28736347e-06
2.0083955e-05
4.28530332e-05
7.85118153e-05
0.000129985119
0.000200192245
0.000292033653
0.00040837746
0.000552045808
0.000725801134
0.000932332382
0.0011742412
0.00145402817
0.00177407906
0.00213665128
0.00254386034
0.00299766665
0.0034998624
0.00405205885
0.00465567384
0.00531191964
0.00602179127
0.00678605518
0.00760523841
0.00847961827
0.00940921257
0.0103937703
0.0114327633
0.0125253779
0.0136705078
0.0148667478
0.0161123873
0.0174054058
0.0187434682
0.0201239215
0.0215437919
0.0229997833
0.0244882759
0.0260053265
0.0275466689
0.0291077159
0.030683562
0.0322689865
0.0338584583
0.0354461411
0.0370258998
0.0385913076
0.0401356543
0.0416519551
0.0431329609
0.0445711687
0.0459588334
0.0472879806
0.0485504198
0.0497377583
0.0508414168
0.0518526444
0.0527625359
0.053562048
0.0542420181
0.0547931819
0.0552061931
0.0554716429
0.0555800797
0.0555220305
0.0552880212
0.0548685984
0.0542543514
0.0534359338
0.0524040862
0.0511496586
0.0496636331
0.0479371467
0.0459615138
0.0437282496
0.0412290923
0.0384560261
0.0354013033
0.0320574668
0.028417372
0.0244742081
0.0202215198
0.0156532279
0.0107636493
0.0055475172
1.949e-17
0.00588328017
0.0121062296
0.018672266
0.025584302
0.0328447301
0.0404554077
0.0484176436
0.0567321853
0.0653992075
0.0744183011
0.0837884636
0.093508091
0.10357497
0.113986272
0.124738548
0.135827725
0.147249103
0.158997354
0.17106652
0.183450019
0.196140641
0.209130557
0.222411322
0.235973879
0.249808572
0.263905148
0.278252773
0.292840042
0.307654987
0.322685097
0.33791733
0.35333813
0.368933443
0.384688738
0.400589024
0.416618872
0.432762437
0.449003481
0.465325394
0.481711221
0.498143689
0.514605229
0.531078006
0.547543946
0.563984764
0.580381994
0.596717018
0.612971096
0.629125396
0.645161026
0.661059066
0.676800596
0.692366732
0.707738654
0.72289764
0.737825098
0.752502598
0.766911901
0.781034993
0.794854117
0.808351801
0.821510891
0.834314579
0.846746436
0.858790436
0.870430989
0.881652965
0.892441725
0.902783143
0.912663634
0.922070175
0.930990335
0.93941229
0.947324847
0.954717467
0.961580281
0.967904107
0.973680469
0.978901613
0.983560518
0.987650912
0.991167279
0.994104875
0.996459732
0.998228668
0.999409289
1
1
0.999409289
0.998228668
0.996459732
0.994104875
0.991167279
0.987650912
0.983560518
0.978901613
0.973680469
0.967904107
0.961580281
0.954717467
0.947324847
0.93941229
0.930990335
0.922070175
0.912663634
0.902783143
0.892441725
0.881652965
0.870430989
0.858790436
0.846746436
0.834314579
0.821510891
0.808351801
0.794854117
0.781034993
0.766911901
0.752502598
0.737825098
0.72289764
0.707738654
0.692366732
0.676800596
0.661059066
0.645161026
0.629125396
0.612971096
0.596717018
0.580381994
0.563984764
0.547543946
0.531078006
0.514605229
0.498143689
0.481711221
0.465325394
0.449003481
0.432762437
0.416618872
0.400589024
0.384688738
0.368933443
0.35333813
0.33791733
0.322685097
0.307654987
0.292840042
0.278252773
0.263905148
0.249808572
0.235973879
0.222411322
0.209130557
0.196140641
0.183450019
0.17106652
0.158997354
0.147249103
0.135827725
0.124738548
0.113986272
0.10357497
0.093508091
0.0837884636
0.0744183011
0.0653992075
0.0567321853
0.0484176436
0.0404554077
0.0328447301
0.025584302
0.018672266
0.0121062296
0.00588328017
1.2188e-16
0.0055475172
0.0107636493
0.0156532279
0.0202215198
0.0244742081
0.028417372
0.0320574668
0.0354013033
0.0384560261
0.0412290923
0.0437282496
0.0459615138
0.0479371467
0.0496636331
0.0511496586
0.0524040862
0.0534359338
0.0542543514
0.0548685984
0.0552880212
0.0555220305
0.0555800797
0.0554716429
0.0552061931
0.0547931819
0.0542420181
0.053562048
0.0527625359
0.0518526444
0.0508414168
0.0497377583
0.0485504198
0.0472879806
0.0459588334
0.0445711687
0.0431329609
0.0416519551
0.0401356543
0.0385913076
0.0370258998
0.0354461411
0.0338584583
0.0322689865
0.030683562
0.0291077159
0.0275466689
0.0260053265
0.0244882759
0.0229997833
0.0215437919
0.0201239215
0.0187434682
0.0174054058
0.0161123873
0.0148667478
0.0136705078
0.0125253779
0.0114327633
0.0103937703
0.00940921257
0.00847961827
0.00760523841
0.00678605518
0.00602179127
0.00531191964
0.00465567384
0.00405205885
0.0034998624
0.00299766665
0.00254386034
0.00213665128
0.00177407906
0.00145402817
0.0011742412
0.000932332382
0.000725801134
0.000552045808
0.00040837746
0.000292033653
0.000200192245
0.000129985119
7.85118153e-05
4.28530332e-05
2.0083955e-05
7.28736347e-06
1.56651235e-06
5.77143847e-08

shape_id 6
num_samples 350
0.5
0
0
84
-0.5
0
0
172
0.5
0
0
85

shape_id 7
num_samples 4
1
0.652892562
0.652892562
1

shape_id 8
num_samples 4
0
25
605
630

shape_id 9
num_samples 4
0.656540084
1
1
0

shape_id 10
num_samples 4
0
25
389
414

shape_id 11
num_samples 4
0
0
0
1

shape_id 12
num_samples 2
0
802

shape_id 13
num_samples 4
0
1
1
0.656540084

shape_id 14
num_samples 4
1
0
0
0


[SIGNATURE]
# This is the hash of the Pulseq file, calculated right before the [SIGNATURE] section was added
# It can be reproduced/verified with md5sum if the file trimmed to the position right above [SIGNATURE]
# The new line character preceding [SIGNATURE] BELONGS to the signature (and needs to be stripped away for recalculating/verification)
Type md5
Hash cdc6ed20a2cbfe7f2878e89a79b1cbaa
